t,x,y,theta,v,w,dvdt,dwdt
0.0,0.0,0.0,0.0,0.0,0.0,0.00569438581401083,0.6719375260532799
0.05,0.026179938779914945,0.0,0.05235987755982989,0.5235987755982988,0.0,10.471975511965976,0.0
0.1,3.5878696225257606e-05,-0.001370152130428577,0.0,0.5235987755982988,-61.784655520599266,0.0,-1235.6931104119853
0.15000000000000002,0.005035878696225259,-0.001370152130428577,0.0,0.10000000000000002,61.784655520599266,-8.471975511965972,2471.38622082397
0.2,0.01003587869622526,-0.001370152130428577,0.0,0.10000000000000002,0.0,0.0,-1235.6931104119856
0.25,0.01503587869622526,-0.001370152130428577,0.0,0.10000000000000002,0.0,0.0,0.0
0.30000000000000004,0.02003587869622526,-0.001370152130428577,0.0,0.10000000000000002,0.0,0.0,0.0
0.35000000000000003,0.025035878696225262,-0.001370152130428577,0.0,0.10000000000000002,0.0,0.0,0.0
0.4,0.030035878696225263,-0.001370152130428577,0.0,0.10000000000000002,0.0,0.0,0.0
0.45,0.035035878696225264,-0.001370152130428577,0.0,0.10000000000000002,0.0,0.0,0.0
0.5,0.04003587869622527,-0.001370152130428577,0.0,0.10000000000000009,0.0,1.387778780781446e-15,0.0
0.55,0.04503587869622527,-0.001370152130428577,0.0,0.10000000000000009,0.0,0.0,0.0
0.6000000000000001,0.05003587869622528,-0.001370152130428577,0.0,0.10000000000000009,0.0,0.0,0.0
0.65,0.05503587869622528,-0.001370152130428577,0.0,0.10000000000000009,0.0,0.0,0.0
0.7000000000000001,0.06003587869622529,-0.001370152130428577,0.0,0.10000000000000009,0.0,0.0,0.0
0.75,0.06503587869622529,-0.001370152130428577,0.0,0.10000000000000009,0.0,0.0,0.0
0.8,0.0700358786962253,-0.001370152130428577,0.0,0.10000000000000009,0.0,0.0,0.0
0.8500000000000001,0.0750358786962253,-0.001370152130428577,0.0,0.10000000000000009,0.0,0.0,0.0
0.9,0.0800358786962253,-0.001370152130428577,0.0,0.10000000000000009,0.0,0.0,0.0
0.9500000000000001,0.08503587869622531,-0.001370152130428577,0.0,0.10000000000000009,0.0,0.0,0.0
1.0,0.09003587869622531,-0.001370152130428577,0.0,0.10000000000000009,0.0,0.0,0.0
1.05,0.09503587869622532,-0.001370152130428577,0.0,0.10000000000000009,0.0,0.0,0.0
1.1,0.10003587869622532,-0.001370152130428577,0.0,0.10000000000000009,0.0,0.0,0.0
1.1500000000000001,0.10503587869622533,-0.001370152130428577,0.0,0.10000000000000009,0.0,0.0,0.0
1.2000000000000002,0.11003587869622533,-0.001370152130428577,0.0,0.10000000000000009,0.0,0.0,0.0
1.25,0.11503587869622534,-0.001370152130428577,0.0,0.10000000000000009,0.0,0.0,0.0
1.3,0.12003587869622534,-0.001370152130428577,0.0,0.10000000000000009,0.0,0.0,0.0
1.35,0.12503587869622534,-0.001370152130428577,0.0,0.10000000000000009,0.0,0.0,0.0
1.4000000000000001,0.13003587869622535,-0.001370152130428577,0.0,0.10000000000000009,0.0,0.0,0.0
1.4500000000000002,0.13503587869622535,-0.001370152130428577,0.0,0.10000000000000009,0.0,0.0,0.0
1.5,0.14003587869622536,-0.001370152130428577,0.0,0.10000000000000009,0.0,0.0,0.0
1.55,0.14503587869622536,-0.001370152130428577,0.0,0.10000000000000009,0.0,0.0,0.0
1.6,0.15003587869622537,-0.001370152130428577,0.0,0.10000000000000009,0.0,0.0,0.0
1.6500000000000001,0.15503587869622537,-0.001370152130428577,0.0,0.10000000000000009,0.0,0.0,0.0
1.7000000000000002,0.16003587869622538,-0.001370152130428577,0.0,0.10000000000000009,0.0,0.0,0.0
1.75,0.16503587869622538,-0.001370152130428577,0.0,0.10000000000000009,0.0,0.0,0.0
1.8,0.17003587869622538,-0.001370152130428577,0.0,0.10000000000000009,0.0,0.0,0.0
1.85,0.1750358786962254,-0.001370152130428577,0.0,0.10000000000000009,0.0,0.0,0.0
1.9000000000000001,0.1800358786962254,-0.001370152130428577,0.0,0.10000000000000009,0.0,0.0,0.0
1.9500000000000002,0.1850358786962254,-0.001370152130428577,0.0,0.10000000000000009,0.0,0.0,0.0
2.0,0.1900358786962254,-0.001370152130428577,0.0,0.10000000000000009,0.0,0.0,0.0
2.0500000000000003,0.1950358786962254,-0.001370152130428577,0.0,0.10000000000000009,0.0,0.0,0.0
2.1,0.2000358786962254,-0.001370152130428577,0.0,0.10000000000000009,0.0,0.0,0.0
2.15,0.20503587869622542,-0.001370152130428577,0.0,0.10000000000000009,0.0,0.0,0.0
2.2,0.21003587869622542,-0.001370152130428577,0.0,0.10000000000000009,0.0,0.0,0.0
2.25,0.21503587869622542,-0.001370152130428577,0.0,0.10000000000000009,0.0,0.0,0.0
2.3000000000000003,0.22003587869622543,-0.001370152130428577,0.0,0.10000000000000009,0.0,0.0,0.0
2.35,0.22503587869622543,-0.001370152130428577,0.0,0.10000000000000009,0.0,0.0,0.0
2.4000000000000004,0.23003587869622544,-0.001370152130428577,0.0,0.10000000000000009,0.0,0.0,0.0
2.45,0.23503587869622544,-0.001370152130428577,0.0,0.10000000000000009,0.0,0.0,0.0
2.5,0.24003587869622545,-0.001370152130428577,0.0,0.10000000000000009,0.0,0.0,0.0
2.5500000000000003,0.24503587869622545,-0.001370152130428577,0.0,0.10000000000000009,0.0,0.0,0.0
2.6,0.25003587869622546,-0.001370152130428577,0.0,0.10000000000000009,0.0,0.0,0.0
2.6500000000000004,0.25503587869622546,-0.001370152130428577,0.0,0.10000000000000009,0.0,0.0,0.0
2.7,0.26003587869622546,-0.001370152130428577,0.0,0.10000000000000009,0.0,0.0,0.0
2.75,0.26503587869622547,-0.001370152130428577,0.0,0.10000000000000009,0.0,0.0,0.0
2.8000000000000003,0.2700358786962255,-0.001370152130428577,0.0,0.10000000000000009,0.0,0.0,0.0
2.85,0.2750358786962255,-0.001370152130428577,0.0,0.10000000000000009,0.0,0.0,0.0
2.9000000000000004,0.2800358786962255,-0.001370152130428577,0.0,0.10000000000000009,0.0,0.0,0.0
2.95,0.2850358786962255,-0.001370152130428577,0.0,0.10000000000000009,0.0,0.0,0.0
3.0,0.2900358786962255,-0.001370152130428577,0.0,0.10000000000000009,0.0,0.0,0.0
3.0500000000000003,0.2950358786962255,-0.001370152130428577,0.0,0.10000000000000009,0.0,0.0,0.0
3.1,0.3000358786962255,-0.001370152130428577,0.0,0.10000000000000009,0.0,0.0,0.0
3.1500000000000004,0.3050358786962255,-0.001370152130428577,0.0,0.10000000000000009,0.0,0.0,0.0
3.2,0.3100358786962255,-0.001370152130428577,0.0,0.10000000000000009,0.0,0.0,0.0
3.25,0.3150358786962255,-0.001370152130428577,0.0,0.10000000000000009,0.0,0.0,0.0
3.3000000000000003,0.3200358786962255,-0.001370152130428577,0.0,0.10000000000000009,0.0,0.0,0.0
3.35,0.3250358786962255,-0.001370152130428577,0.0,0.10000000000000009,0.0,0.0,0.0
3.4000000000000004,0.3300358786962255,-0.001370152130428577,0.0,0.10000000000000009,0.0,0.0,0.0
3.45,0.33503587869622553,-0.001370152130428577,0.0,0.10000000000000009,0.0,0.0,0.0
3.5,0.34003587869622554,-0.001370152130428577,0.0,0.10000000000000009,0.0,0.0,0.0
3.5500000000000003,0.34503587869622554,-0.001370152130428577,0.0,0.10000000000000009,0.0,0.0,0.0
3.6,0.35003587869622554,-0.001370152130428577,0.0,0.10000000000000009,0.0,0.0,0.0
3.6500000000000004,0.35503587869622555,-0.001370152130428577,0.0,0.10000000000000009,0.0,0.0,0.0
3.7,0.36003587869622555,-0.001370152130428577,0.0,0.10000000000000009,0.0,0.0,0.0
3.75,0.36503587869622556,-0.001370152130428577,0.0,0.10000000000000009,0.0,0.0,0.0
3.8000000000000003,0.37003587869622556,-0.001370152130428577,0.0,0.10000000000000009,0.0,0.0,0.0
3.85,0.37503587869622557,-0.001370152130428577,0.0,0.10000000000000009,0.0,0.0,0.0
3.9000000000000004,0.38003587869622557,-0.001370152130428577,0.0,0.10000000000000009,0.0,0.0,0.0
3.95,0.3850358786962256,-0.001370152130428577,0.0,0.10000000000000009,0.0,0.0,0.0
4.0,0.3900358786962256,-0.001370152130428577,0.0,0.10000000000000009,0.0,0.0,0.0
4.05,0.3950358786962256,-0.001370152130428577,0.0,0.10000000000000009,0.0,0.0,0.0
4.1000000000000005,0.4000358786962256,-0.001370152130428577,0.0,0.10000000000000009,0.0,0.0,0.0
4.15,0.4050358786962256,-0.001370152130428577,0.0,0.10000000000000009,0.0,0.0,0.0
4.2,0.4100358786962256,-0.001370152130428577,0.0,0.10000000000000009,0.0,0.0,0.0
4.25,0.4150358786962256,-0.001370152130428577,0.0,0.10000000000000009,0.0,0.0,0.0
4.3,0.4200358786962256,-0.001370152130428577,0.0,0.10000000000000009,0.0,0.0,0.0
4.3500000000000005,0.4250358786962256,-0.001370152130428577,0.0,0.10000000000000009,0.0,0.0,0.0
4.4,0.4300358786962256,-0.001370152130428577,0.0,0.10000000000000009,0.0,0.0,0.0
4.45,0.4350358786962256,-0.001370152130428577,0.0,0.10000000000000009,0.0,0.0,0.0
4.5,0.4400358786962256,-0.001370152130428577,0.0,0.10000000000000009,0.0,0.0,0.0
4.55,0.44503587869622563,-0.001370152130428577,0.0,0.10000000000000009,0.0,0.0,0.0
4.6000000000000005,0.45003587869622563,-0.001370152130428577,0.0,0.10000000000000009,0.0,0.0,0.0
4.65,0.45503587869622564,-0.001370152130428577,0.0,0.10000000000000009,0.0,0.0,0.0
4.7,0.46003587869622564,-0.001370152130428577,0.0,0.10000000000000009,0.0,0.0,0.0
4.75,0.46503587869622565,-0.001370152130428577,0.0,0.10000000000000009,0.0,0.0,0.0
4.800000000000001,0.47003587869622565,-0.001370152130428577,0.0,0.10000000000000009,0.0,0.0,0.0
4.8500000000000005,0.47503587869622566,-0.001370152130428577,0.0,0.10000000000000009,0.0,0.0,0.0
4.9,0.48003587869622566,-0.001370152130428577,0.0,0.10000000000000009,0.0,0.0,0.0
4.95,0.48503587869622566,-0.001370152130428577,0.0,0.10000000000000009,0.0,0.0,0.0
5.0,0.49003587869622567,-0.001370152130428577,0.0,0.10000000000000009,0.0,0.0,0.0
5.050000000000001,0.4950358786962257,-0.001370152130428577,0.0,0.10000000000000009,0.0,0.0,0.0
5.1000000000000005,0.5000358786962257,-0.001370152130428577,0.0,0.10000000000000009,0.0,0.0,0.0
5.15,0.5050358786962257,-0.001370152130428577,0.0,0.10000000000000009,0.0,0.0,0.0
5.2,0.5100358786962257,-0.001370152130428577,0.0,0.10000000000000009,0.0,0.0,0.0
5.25,0.5150358786962257,-0.001370152130428577,0.0,0.10000000000000009,0.0,0.0,0.0
5.300000000000001,0.5200358786962257,-0.001370152130428577,0.0,0.10000000000000009,0.0,0.0,0.0
5.3500000000000005,0.5250358786962257,-0.001370152130428577,0.0,0.10000000000000009,0.0,0.0,0.0
5.4,0.5300358786962257,-0.001370152130428577,0.0,0.10000000000000009,0.0,0.0,0.0
5.45,0.5350358786962257,-0.001370152130428577,0.0,0.10000000000000009,0.0,0.0,0.0
5.5,0.5400358786962257,-0.001370152130428577,0.0,0.10000000000000009,0.0,0.0,0.0
5.550000000000001,0.5450358786962257,-0.001370152130428577,0.0,0.10000000000000009,0.0,0.0,0.0
5.6000000000000005,0.5500358786962257,-0.001370152130428577,0.0,0.10000000000000009,0.0,0.0,0.0
5.65,0.5550358786962257,-0.001370152130428577,0.0,0.10000000000000009,0.0,0.0,0.0
5.7,0.5600358786962257,-0.001370152130428577,0.0,0.10000000000000009,0.0,0.0,0.0
5.75,0.5650358786962257,-0.001370152130428577,0.0,0.10000000000000009,0.0,0.0,0.0
5.800000000000001,0.5700358786962257,-0.001370152130428577,0.0,0.10000000000000009,0.0,0.0,0.0
5.8500000000000005,0.5750358786962257,-0.001370152130428577,0.0,0.10000000000000009,0.0,0.0,0.0
5.9,0.5800358786962257,-0.001370152130428577,0.0,0.10000000000000009,0.0,0.0,0.0
5.95,0.5850358786962258,-0.001370152130428577,0.0,0.10000000000000009,0.0,0.0,0.0
6.0,0.5900358786962258,-0.001370152130428577,0.0,0.10000000000000009,0.0,0.0,0.0
6.050000000000001,0.5950358786962258,-0.001370152130428577,0.0,0.10000000000000009,0.0,0.0,0.0
6.1000000000000005,0.6000358786962258,-0.001370152130428577,0.0,0.10000000000000009,0.0,0.0,0.0
6.15,0.6050358786962258,-0.001370152130428577,0.0,0.10000000000000009,0.0,0.0,0.0
6.2,0.6100358786962258,-0.001370152130428577,0.0,0.10000000000000009,0.0,0.0,0.0
6.25,0.6150358786962258,-0.001370152130428577,0.0,0.10000000000000009,0.0,0.0,0.0
6.300000000000001,0.6200358786962258,-0.001370152130428577,0.0,0.10000000000000009,0.0,0.0,0.0
6.3500000000000005,0.6250358786962258,-0.001370152130428577,0.0,0.10000000000000009,0.0,0.0,0.0
6.4,0.6300358786962258,-0.001370152130428577,0.0,0.10000000000000009,0.0,0.0,0.0
6.45,0.6350358786962258,-0.001370152130428577,0.0,0.10000000000000009,0.0,0.0,0.0
6.5,0.6400358786962258,-0.001370152130428577,0.0,0.10000000000000009,0.0,0.0,0.0
6.550000000000001,0.6450358786962258,-0.001370152130428577,0.0,0.10000000000000009,0.0,0.0,0.0
6.6000000000000005,0.6500358786962258,-0.001370152130428577,0.0,0.10000000000000009,0.0,0.0,0.0
6.65,0.6550358786962258,-0.001370152130428577,0.0,0.10000000000000009,0.0,0.0,0.0
6.7,0.6600358786962258,-0.001370152130428577,0.0,0.10000000000000009,0.0,0.0,0.0
6.75,0.6650358786962258,-0.001370152130428577,0.0,0.10000000000000009,0.0,0.0,0.0
6.800000000000001,0.6700358786962258,-0.001370152130428577,0.0,0.10000000000000009,0.0,0.0,0.0
6.8500000000000005,0.6750358786962258,-0.001370152130428577,0.0,0.10000000000000009,0.0,0.0,0.0
6.9,0.6800358786962258,-0.001370152130428577,0.0,0.10000000000000009,0.0,0.0,0.0
6.95,0.6850358786962258,-0.001370152130428577,0.0,0.10000000000000009,0.0,0.0,0.0
7.0,0.6900358786962258,-0.001370152130428577,0.0,0.10000000000000009,0.0,0.0,0.0
7.050000000000001,0.6950358786962259,-0.001370152130428577,0.0,0.10000000000000009,0.0,0.0,0.0
7.1000000000000005,0.7000358786962259,-0.001370152130428577,0.0,0.10000000000000009,0.0,0.0,0.0
7.15,0.7050358786962259,-0.001370152130428577,0.0,0.10000000000000009,0.0,0.0,0.0
7.2,0.7100358786962259,-0.001370152130428577,0.0,0.10000000000000009,0.0,0.0,0.0
7.25,0.7150358786962259,-0.001370152130428577,0.0,0.10000000000000009,0.0,0.0,0.0
7.300000000000001,0.7200358786962259,-0.001370152130428577,0.0,0.10000000000000009,0.0,0.0,0.0
7.3500000000000005,0.7250358786962259,-0.001370152130428577,0.0,0.10000000000000009,0.0,0.0,0.0
7.4,0.7300358786962259,-0.001370152130428577,0.0,0.10000000000000009,0.0,0.0,0.0
7.45,0.7350358786962259,-0.001370152130428577,0.0,0.10000000000000009,0.0,0.0,0.0
7.5,0.7400358786962259,-0.001370152130428577,0.0,0.10000000000000009,0.0,0.0,0.0
7.550000000000001,0.7450358786962259,-0.001370152130428577,0.0,0.10000000000000009,0.0,0.0,0.0
7.6000000000000005,0.7500358786962259,-0.001370152130428577,0.0,0.10000000000000009,0.0,0.0,0.0
7.65,0.7550358786962259,-0.001370152130428577,0.0,0.10000000000000009,0.0,0.0,0.0
7.7,0.7600358786962259,-0.001370152130428577,0.0,0.10000000000000009,0.0,0.0,0.0
7.75,0.7650358786962259,-0.001370152130428577,0.0,0.10000000000000009,0.0,0.0,0.0
7.800000000000001,0.7700358786962259,-0.001370152130428577,0.0,0.10000000000000009,0.0,0.0,0.0
7.8500000000000005,0.7750358786962259,-0.001370152130428577,0.0,0.10000000000000009,0.0,0.0,0.0
7.9,0.7800358786962259,-0.001370152130428577,0.0,0.10000000000000009,0.0,0.0,0.0
7.95,0.7850358786962259,-0.001370152130428577,0.0,0.10000000000000009,0.0,0.0,0.0
8.0,0.7900358786962259,-0.001370152130428577,0.0,0.10000000000000009,0.0,0.0,0.0
8.05,0.7950358786962259,-0.001370152130428577,0.0,0.10000000000000009,0.0,0.0,0.0
8.1,0.8000358786962259,-0.001370152130428577,0.0,0.10000000000000009,0.0,0.0,0.0
8.15,0.805035878696226,-0.001370152130428577,0.0,0.10000000000000009,0.0,0.0,0.0
8.200000000000001,0.810035878696226,-0.001370152130428577,0.0,0.10000000000000009,0.0,0.0,0.0
8.25,0.815035878696226,-0.001370152130428577,0.0,0.10000000000000009,0.0,0.0,0.0
8.3,0.820035878696226,-0.001370152130428577,0.0,0.10000000000000009,0.0,0.0,0.0
8.35,0.825035878696226,-0.001370152130428577,0.0,0.10000000000000009,0.0,0.0,0.0
8.4,0.830035878696226,-0.001370152130428577,0.0,0.10000000000000009,0.0,0.0,0.0
8.450000000000001,0.835035878696226,-0.001370152130428577,0.0,0.10000000000000009,0.0,0.0,0.0
8.5,0.840035878696226,-0.001370152130428577,0.0,0.10000000000000009,0.0,0.0,0.0
8.55,0.845035878696226,-0.001370152130428577,0.0,0.10000000000000009,0.0,0.0,0.0
8.6,0.850035878696226,-0.001370152130428577,0.0,0.10000000000000009,0.0,0.0,0.0
8.65,0.855035878696226,-0.001370152130428577,0.0,0.10000000000000009,0.0,0.0,0.0
8.700000000000001,0.860035878696226,-0.001370152130428577,0.0,0.10000000000000009,0.0,0.0,0.0
8.75,0.865035878696226,-0.001370152130428577,0.0,0.10000000000000009,0.0,0.0,0.0
8.8,0.870035878696226,-0.001370152130428577,0.0,0.10000000000000009,0.0,0.0,0.0
8.85,0.875035878696226,-0.001370152130428577,0.0,0.10000000000000009,0.0,0.0,0.0
8.9,0.880035878696226,-0.001370152130428577,0.0,0.10000000000000009,0.0,0.0,0.0
8.950000000000001,0.885035878696226,-0.001370152130428577,0.0,0.10000000000000009,0.0,0.0,0.0
9.0,0.890035878696226,-0.001370152130428577,0.0,0.10000000000000009,0.0,0.0,0.0
9.05,0.895035878696226,-0.001370152130428577,0.0,0.10000000000000009,0.0,0.0,0.0
9.1,0.900035878696226,-0.001370152130428577,0.0,0.10000000000000009,0.0,0.0,0.0
9.15,0.905035878696226,-0.001370152130428577,0.0,0.10000000000000009,0.0,0.0,0.0
9.200000000000001,0.910035878696226,-0.001370152130428577,0.0,0.10000000000000009,0.0,0.0,0.0
9.25,0.915035878696226,-0.001370152130428577,0.0,0.10000000000000009,0.0,0.0,0.0
9.3,0.920035878696226,-0.001370152130428577,0.0,0.10000000000000009,0.0,0.0,0.0
9.35,0.925035878696226,-0.001370152130428577,0.0,0.10000000000000009,0.0,0.0,0.0
9.4,0.9300358786962261,-0.001370152130428577,0.0,0.10000000000000009,0.0,0.0,0.0
9.450000000000001,0.9350358786962261,-0.001370152130428577,0.0,0.10000000000000009,0.0,0.0,0.0
9.5,0.9400358786962261,-0.001370152130428577,0.0,0.10000000000000009,0.0,0.0,0.0
9.55,0.9450358786962261,-0.001370152130428577,0.0,0.10000000000000009,0.0,0.0,0.0
9.600000000000001,0.9500358786962261,-0.001370152130428577,0.0,0.10000000000000009,0.0,0.0,0.0
9.65,0.9550358786962261,-0.001370152130428577,0.0,0.10000000000000009,0.0,0.0,0.0
9.700000000000001,0.9600358786962261,-0.001370152130428577,0.0,0.10000000000000009,0.0,0.0,0.0
9.75,0.9650358786962261,-0.001370152130428577,0.0,0.10000000000000009,0.0,0.0,0.0
9.8,0.9700358786962261,-0.001370152130428577,0.0,0.10000000000000009,0.0,0.0,0.0
9.850000000000001,0.9750358786962261,-0.001370152130428577,0.0,0.10000000000000009,0.0,0.0,0.0
9.9,0.9800358786962261,-0.001370152130428577,0.0,0.10000000000000009,0.0,0.0,0.0
9.950000000000001,0.9850358786962261,-0.001370152130428577,0.0,0.10000000000000009,0.0,0.0,0.0
10.0,0.9900358786962261,-0.001370152130428577,0.0,0.10000000000000009,0.0,0.0,0.0
10.05,0.9950358786962261,-0.001370152130428577,0.0,0.10000000000000009,0.0,0.0,0.0
10.100000000000001,1.000035878696226,-0.001370152130428577,0.0,0.09999999999999787,0.0,-4.440892098500563e-14,0.0
10.15,1.005035878696226,-0.001370152130428577,0.0,0.09999999999999787,0.0,0.0,0.0
10.200000000000001,1.0100358786962258,-0.001370152130428577,0.0,0.09999999999999787,0.0,0.0,0.0
10.25,1.0150358786962257,-0.001370152130428577,0.0,0.09999999999999787,0.0,0.0,0.0
10.3,1.0200358786962256,-0.001370152130428577,0.0,0.09999999999999787,0.0,0.0,0.0
10.350000000000001,1.0250358786962255,-0.001370152130428577,0.0,0.09999999999999787,0.0,0.0,0.0
10.4,1.0300358786962254,-0.001370152130428577,0.0,0.09999999999999787,0.0,0.0,0.0
10.450000000000001,1.0350358786962253,-0.001370152130428577,0.0,0.09999999999999787,0.0,0.0,0.0
10.5,1.0400358786962252,-0.001370152130428577,0.0,0.09999999999999787,0.0,0.0,0.0
10.55,1.045035878696225,-0.001370152130428577,0.0,0.09999999999999787,0.0,0.0,0.0
10.600000000000001,1.050035878696225,-0.001370152130428577,0.0,0.09999999999999787,0.0,0.0,0.0
10.65,1.0550358786962248,-0.001370152130428577,0.0,0.09999999999999787,0.0,0.0,0.0
10.700000000000001,1.0600358786962247,-0.001370152130428577,0.0,0.09999999999999787,0.0,0.0,0.0
10.75,1.0650358786962246,-0.001370152130428577,0.0,0.09999999999999787,0.0,0.0,0.0
10.8,1.0700358786962245,-0.001370152130428577,0.0,0.09999999999999787,0.0,0.0,0.0
10.850000000000001,1.0750358786962244,-0.001370152130428577,0.0,0.09999999999999787,0.0,0.0,0.0
10.9,1.0800358786962243,-0.001370152130428577,0.0,0.09999999999999787,0.0,0.0,0.0
10.950000000000001,1.0850358786962242,-0.001370152130428577,0.0,0.09999999999999787,0.0,0.0,0.0
11.0,1.090035878696224,-0.001370152130428577,0.0,0.09999999999999787,0.0,0.0,0.0
11.05,1.095035878696224,-0.001370152130428577,0.0,0.09999999999999787,0.0,0.0,0.0
11.100000000000001,1.1000358786962239,-0.001370152130428577,0.0,0.09999999999999787,0.0,0.0,0.0
11.15,1.1050358786962238,-0.001370152130428577,0.0,0.09999999999999787,0.0,0.0,0.0
11.200000000000001,1.1100358786962237,-0.001370152130428577,0.0,0.09999999999999787,0.0,0.0,0.0
11.25,1.1150358786962236,-0.001370152130428577,0.0,0.09999999999999787,0.0,0.0,0.0
